1278.17 nan
1277.688 nan
1277.205 nan
1276.723 nan
1276.241 nan
1275.759 nan
1275.277 nan
1274.795 nan
1274.313 nan
1273.831 nan
1273.349 nan
1272.866 nan
1272.384 nan
1271.902 nan
1271.42 nan
1270.938 nan
1270.456 nan
1269.974 nan
1269.492 nan
1269.01 nan
1268.527 nan
1268.045 nan
1267.563 nan
1267.081 nan
1266.599 nan
1266.117 nan
1265.635 nan
1265.153 nan
1264.67 nan
1264.188 nan
1263.706 nan
1263.224 nan
1262.742 nan
1262.26 nan
1261.778 nan
1261.296 nan
1260.813 nan
1260.331 nan
1259.849 nan
1259.367 nan
1258.885 nan
1258.403 nan
1257.921 nan
1257.439 nan
1256.957 nan
1256.474 nan
1255.992 nan
1255.51 nan
1255.028 nan
1254.546 nan
1254.064 nan
1253.582 nan
1253.1 nan
1252.618 nan
1252.135 nan
1251.653 nan
1251.171 nan
1250.689 nan
1250.207 nan
1249.725 nan
1249.243 nan
1248.761 nan
1248.278 nan
1247.796 nan
1247.314 nan
1246.832 nan
1246.35 nan
1245.868 nan
1245.386 nan
1244.904 nan
1244.422 nan
1243.939 nan
1243.457 nan
1242.975 nan
1242.493 nan
1242.011 nan
1241.529 nan
1241.047 nan
1240.565 nan
1240.083 nan
1239.6 nan
1239.118 nan
1238.636 nan
1238.154 nan
1237.672 nan
1237.19 nan
1236.708 nan
1236.226 nan
1235.743 nan
1235.261 nan
1234.779 nan
1234.297 nan
1233.815 nan
1233.333 nan
1232.851 nan
1232.369 nan
1231.886 nan
1231.404 nan
1230.922 nan
1230.44 nan
1229.958 nan
1229.476 nan
1228.994 nan
1228.512 nan
1228.03 nan
1227.547 nan
1227.065 nan
1226.583 nan
1226.101 nan
1225.619 nan
1225.137 nan
1224.655 nan
1224.173 nan
1223.691 nan
1223.208 nan
1222.726 nan
1222.244 nan
1221.762 nan
1221.28 nan
1220.798 nan
1220.316 nan
1219.834 nan
1219.351 nan
1218.869 nan
1218.387 nan
1217.905 nan
1217.423 nan
1216.941 nan
1216.459 nan
1215.977 nan
1215.495 nan
1215.012 nan
1214.53 nan
1214.048 nan
1213.566 nan
1213.084 nan
1212.602 nan
1212.12 nan
1211.638 nan
1211.156 nan
1210.673 nan
1210.191 nan
1209.709 nan
1209.227 nan
1208.745 nan
1208.263 nan
1207.781 nan
1207.299 nan
1206.816 nan
1206.334 nan
1205.852 nan
1205.37 nan
1204.888 nan
1204.406 nan
1203.924 nan
1203.442 nan
1202.959 nan
1202.477 nan
1201.995 nan
1201.513 nan
1201.031 nan
1200.549 nan
1200.067 nan
1199.585 nan
1199.103 nan
1198.62 nan
1198.138 nan
1197.656 nan
1197.174 nan
1196.692 nan
1196.21 nan
1195.728 nan
1195.246 nan
1194.764 nan
1194.281 nan
1193.799 nan
1193.317 nan
1192.835 nan
1192.353 nan
1191.871 nan
1191.389 nan
1190.907 nan
1190.424 nan
1189.942 nan
1189.46 nan
1188.978 nan
1188.496 nan
1188.014 nan
1187.532 nan
1187.05 nan
1186.568 nan
1186.085 nan
1185.603 nan
1185.121 nan
1184.639 nan
1184.157 nan
1183.675 nan
1183.193 nan
1182.711 nan
1182.229 nan
1181.746 nan
1181.264 nan
1180.782 nan
1180.3 nan
1179.818 nan
1179.336 nan
1178.854 nan
1178.372 nan
1177.889 nan
1177.407 nan
1176.925 nan
1176.443 nan
1175.961 nan
1175.479 nan
1174.997 nan
1174.515 nan
1174.032 nan
1173.55 nan
1173.068 nan
1172.586 nan
1172.104 nan
1171.622 nan
1171.14 nan
1170.658 nan
1170.176 nan
1169.693 nan
1169.211 nan
1168.729 nan
1168.247 nan
1167.765 nan
1167.283 nan
1166.801 nan
1166.319 nan
1165.837 nan
1165.354 nan
1164.872 nan
1164.39 nan
1163.908 nan
1163.426 nan
1162.944 nan
1162.462 nan
1161.98 nan
1161.497 nan
1161.015 nan
1160.533 nan
1160.051 nan
1159.569 nan
1159.087 nan
1158.605 nan
1158.123 nan
1157.641 nan
1157.158 nan
1156.676 nan
1156.194 nan
1155.712 nan
1155.23 nan
1154.748 nan
1154.266 nan
1153.784 nan
1153.302 nan
1152.819 nan
1152.337 nan
1151.855 nan
1151.373 nan
1150.891 nan
1150.409 nan
1149.927 nan
1149.445 nan
1148.962 nan
1148.48 nan
1147.998 nan
1147.516 nan
1147.034 nan
1146.552 nan
1146.07 nan
1145.588 nan
1145.105 nan
1144.623 nan
1144.141 nan
1143.659 nan
1143.177 nan
1142.695 nan
1142.213 nan
1141.731 nan
1141.249 nan
1140.766 nan
1140.284 nan
1139.802 nan
1139.32 nan
1138.838 nan
1138.356 nan
1137.874 nan
1137.392 nan
1136.91 nan
1136.427 nan
1135.945 nan
1135.463 nan
1134.981 nan
1134.499 nan
1134.017 nan
1133.535 nan
1133.053 nan
1132.57 nan
1132.088 nan
1131.606 nan
1131.124 nan
1130.642 nan
1130.16 nan
1129.678 nan
1129.196 nan
1128.714 nan
1128.231 nan
1127.749 nan
1127.267 nan
1126.785 nan
1126.303 nan
1125.821 nan
1125.339 nan
1124.857 nan
1124.375 nan
1123.892 nan
1123.41 nan
1122.928 nan
1122.446 nan
1121.964 nan
1121.482 nan
1121.0 nan
1120.518 nan
1120.035 nan
1119.553 nan
1119.071 nan
1118.589 nan
1118.107 nan
1117.625 nan
1117.143 nan
1116.661 nan
1116.178 nan
1115.696 nan
1115.214 nan
1114.732 nan
1114.25 nan
1113.768 nan
1113.286 nan
1112.804 nan
1112.322 nan
1111.839 nan
1111.357 nan
1110.875 nan
1110.393 nan
1109.911 nan
1109.429 nan
1108.947 nan
1108.465 nan
1107.983 nan
1107.5 nan
1107.018 nan
1106.536 nan
1106.054 nan
1105.572 nan
1105.09 nan
1104.608 nan
1104.126 nan
1103.643 nan
1103.161 nan
1102.679 nan
1102.197 nan
1101.715 nan
1101.233 nan
1100.751 nan
1100.269 nan
1099.786 nan
1099.304 nan
1098.822 nan
1098.34 nan
1097.858 nan
1097.376 nan
1096.894 nan
1096.412 nan
1095.93 nan
1095.448 nan
1094.965 nan
1094.483 nan
1094.001 nan
1093.519 nan
1093.037 nan
1092.555 nan
1092.073 nan
1091.591 nan
1091.108 nan
1090.626 nan
1090.144 nan
1089.662 nan
1089.18 nan
1088.698 nan
1088.216 nan
1087.734 nan
1087.251 nan
1086.769 nan
1086.287 nan
1085.805 nan
1085.323 nan
1084.841 nan
1084.359 nan
1083.877 nan
1083.395 nan
1082.912 nan
1082.43 nan
1081.948 nan
1081.466 nan
1080.984 nan
1080.502 nan
1080.02 nan
1079.538 nan
1079.056 nan
1078.573 nan
1078.091 nan
1077.609 nan
1077.127 nan
1076.645 nan
1076.163 nan
1075.681 nan
1075.199 nan
1074.716 nan
1074.234 nan
1073.752 nan
1073.27 nan
1072.788 nan
1072.306 nan
1071.824 nan
1071.342 nan
1070.859 nan
1070.377 nan
1069.895 nan
1069.413 nan
1068.931 nan
1068.449 nan
1067.967 nan
1067.485 nan
1067.003 nan
1066.52 nan
1066.038 nan
1065.556 nan
1065.074 nan
1064.592 nan
1064.11 nan
1063.628 nan
1063.146 nan
1062.663 nan
1062.181 nan
1061.699 nan
1061.217 nan
1060.735 nan
1060.253 nan
1059.771 nan
1059.289 nan
1058.807 nan
1058.324 nan
1057.842 nan
1057.36 nan
1056.878 nan
1056.396 nan
1055.914 nan
1055.432 nan
1054.95 nan
1054.468 8.966522
1053.985 10.72699
1053.503 16.8087
1053.021 21.83833
1052.539 23.89558
1052.057 22.77985
1051.575 18.26198
1051.093 11.95197
1050.611 12.939
1050.128 19.75206
1049.646 20.81241
1049.164 16.52869
1048.682 13.86642
1048.2 16.03778
1047.718 19.8306
1047.236 21.66888
1046.754 21.9752
1046.271 16.82567
1045.789 7.334763
1045.307 11.48662
1044.825 27.47452
1044.343 37.71115
1043.861 33.86154
1043.379 26.49008
1042.897 27.08531
1042.415 31.44156
1041.932 40.68155
1041.45 54.22838
1040.968 51.42546
1040.486 35.21165
1040.004 17.0569
1039.522 1.974976
1039.04 5.869614
1038.558 9.115417
1038.076 35.75008
1037.593 35.91806
1037.111 24.93219
1036.629 20.82175
1036.147 20.76353
1035.665 21.04509
1035.183 20.67314
1034.701 20.68353
1034.219 21.64326
1033.736 22.71391
1033.254 19.5515
1032.772 14.19321
1032.29 10.40236
1031.808 7.732452
1031.326 8.221161
1030.844 13.12787
1030.362 18.18268
1029.88 16.89954
1029.397 12.64352
1028.915 6.044601
1028.433 1.754578
1027.951 1.643524
1027.469 14.23714
1026.987 23.4424
1026.505 22.70987
1026.023 20.69768
1025.541 24.65469
1025.058 29.24716
1024.576 23.33685
1024.094 13.23511
1023.612 9.946838
1023.13 12.65622
1022.648 14.44312
1022.166 11.92088
1021.684 8.395935
1021.201 5.685303
1020.719 4.492889
1020.237 11.98254
1019.755 23.06261
1019.273 27.6172
1018.791 25.66872
1018.309 22.59608
1017.827 21.23482
1017.345 17.66341
1016.862 9.475281
1016.38 0.152237
1015.898 2.726135
1015.416 2.017029
1014.934 2.370834
1014.452 9.559036
1013.97 16.89857
1013.488 21.95621
1013.005 25.08119
1012.523 24.04573
1012.041 21.3555
1011.559 21.84808
1011.077 23.05911
1010.595 21.49425
1010.113 16.49162
1009.631 8.632813
1009.149 1.891586
1008.666 10.07239
1008.184 6.154297
1007.702 2.511948
1007.22 7.737167
1006.738 12.10022
1006.256 17.37349
1005.774 23.29819
1005.292 26.53635
1004.81 24.15013
1004.327 19.63725
1003.845 16.51207
1003.363 14.6122
1002.881 18.89256
1002.399 26.14697
1001.917 27.33868
1001.435 20.67717
1000.953 13.46852
1000.47 10.87886
999.9883 10.46495
999.5062 13.49934
999.0241 17.3633
998.542 15.56851
998.0599 11.19765
997.5778 14.1788
997.0956 26.73485
996.6135 33.13116
996.1314 17.79315
995.6493 1.911591
995.1672 2.838058
994.6851 2.924164
994.2029 9.690231
993.7208 16.86702
993.2387 21.76994
992.7566 22.51866
992.2745 23.37006
991.7924 28.3018
991.3102 32.80324
990.8281 29.23634
990.346 21.96498
989.8639 14.99243
989.3818 9.399216
988.8997 8.788681
988.4175 15.74101
987.9354 21.32941
987.4533 13.03847
986.9712 2.4888
986.4891 9.69487
986.007 23.06557
985.5248 23.77357
985.0427 10.87332
984.5606 0.211929
984.0785 2.124619
983.5964 7.759445
983.1143 11.62323
982.6321 15.61928
982.15 16.47905
981.6679 15.65508
981.1858 15.67712
980.7037 17.70901
980.2216 16.89633
979.7394 9.524689
979.2573 2.975204
978.7752 13.48929
978.2931 30.63062
977.811 35.57121
977.3289 32.91164
976.8467 30.61092
976.3646 30.96924
975.8825 27.66551
975.4004 14.28134
974.9183 1.610901
974.4362 0.095275998
973.954 8.839676
973.4719 12.39702
972.9898 11.93866
972.5077 11.05376
972.0256 10.97432
971.5435 12.05292
971.0613 16.98065
970.5792 23.573
970.0971 24.76801
969.615 23.56903
969.1329 22.40442
968.6508 21.43033
968.1686 19.62738
967.6865 16.77319
967.2044 12.89049
966.7223 7.27742
966.2402 0.45253
965.7581 7.460052
965.2759 22.61478
964.7938 25.58441
964.3117 13.01666
963.8296 2.583527
963.3475 10.93217
962.8654 26.09596
962.3832 31.75385
961.9011 34.45741
961.419 24.16019
960.9369 3.37355
960.4548 7.59745
959.9727 1.220047
959.4905 10.35271
959.0084 15.19244
958.5263 18.17413
958.0442 20.26558
957.5621 21.50134
957.08 16.19946
956.5978 4.215088
956.1157 1.521393
955.6336 18.036
955.1515 38.94464
954.6694 39.01497
954.1873 26.79579
953.7051 20.88181
953.223 17.68021
952.7409 17.15608
952.2588 19.48573
951.7767 20.82475
951.2946 17.37637
950.8124 12.01445
950.3303 12.99011
949.8482 19.11845
949.3661 23.76523
948.884 27.37906
948.4019 25.36609
947.9197 15.62474
947.4376 5.299545
946.9555 3.691544
946.4734 7.371185
945.9913 4.818283
945.5092 3.797684
945.027 5.202271
944.5449 2.038269
944.0628 7.855743
943.5807 6.288834
943.0986 3.842636
942.6165 12.39424
942.1343 29.22974
941.6522 30.70503
941.1701 12.86821
940.688 2.979385
940.2059 10.5322
939.7238 20.71523
939.2416 22.12582
938.7595 17.56909
938.2774 16.57828
937.7953 20.28746
937.3132 20.73503
936.8311 15.57584
936.3489 11.05814
935.8668 11.76062
935.3847 14.08124
934.9026 13.05836
934.4205 8.710098
933.9384 5.441727
933.4562 4.990265
932.9741 6.091614
932.492 8.806396
932.0099 11.92599
931.5278 13.60609
931.0457 14.10646
930.5635 14.04274
930.0814 13.34041
929.5993 10.79657
929.1172 5.261124
928.6351 1.20166
928.153 5.958298
927.6708 14.54112
927.1887 22.01695
926.7066 26.98512
926.2245 26.88741
925.7424 19.04625
925.2603 9.64859
924.7781 7.096893
924.296 6.106277
923.8139 2.119019
923.3318 1.612381
922.8497 6.0159
922.3676 26.88225
921.8854 43.42007
921.4033 35.34494
920.9212 19.21797
920.4391 21.00116
919.957 28.4792
919.4749 29.59052
918.9927 25.96999
918.5106 23.04268
918.0285 23.44577
917.5464 24.89236
917.0643 25.98756
916.5822 27.25214
916.1 19.33791
915.6179 5.673828
915.1358 2.7845
914.6537 12.29245
914.1716 22.9801
913.6895 25.55972
913.2073 23.89314
912.7252 18.06108
912.2431 8.246262
911.761 2.130997
911.2789 1.397118
910.7968 0.945938
910.3146 11.48309
909.8325 24.03545
909.3504 28.53562
908.8683 27.55552
908.3862 24.86877
907.9041 20.42107
907.4219 17.8989
906.9398 18.28059
906.4577 17.82031
905.9756 13.42097
905.4935 9.271347
905.0114 16.53867
904.5292 35.25423
904.0471 47.8712
903.565 49.92142
903.0829 43.91157
902.6008 28.18404
902.1187 12.18106
901.6365 9.547028
901.1544 19.20512
900.6723 20.98465
900.1902 6.706543
899.7081 2.490242
899.226 6.974602
898.7438 21.09059
898.2617 29.3455
897.7796 31.83418
897.2975 30.60985
896.8154 26.1764
896.3333 22.4892
895.8511 24.63829
895.369 26.95028
894.8869 22.35991
894.4048 14.52783
893.9227 8.624832
893.4406 6.393654
892.9584 7.805908
892.4763 15.07899
891.9942 23.6908
891.5121 21.80915
891.03 15.5965
890.5479 12.33865
890.0657 11.08808
889.5836 12.64408
889.1015 18.06149
888.6194 24.02726
888.1373 23.02904
887.6552 18.65205
887.173 16.44891
886.6909 14.82877
886.2088 18.44876
885.7267 27.87185
885.2446 34.72264
884.7625 30.23264
884.2803 19.08476
883.7982 7.725471
883.3161 5.210213
882.834 7.726128
882.3519 0.586594
881.8698 9.919121
881.3876 20.83555
880.9055 27.76087
880.4234 20.93859
879.9413 3.068291
879.4592 2.928917
878.9771 5.321899
878.4949 13.31284
878.0128 16.38313
877.5307 17.63887
877.0486 19.20879
876.5665 21.39305
876.0844 24.5537
875.6022 28.76987
875.1201 29.10708
874.638 21.75368
874.1559 13.08253
873.6738 8.945137
873.1917 8.777168
872.7095 11.44016
872.2274 16.739
871.7453 23.56121
871.2632 30.48796
870.7811 36.2551
870.299 35.54967
869.8168 30.93884
869.3347 24.30331
868.8526 16.5266
868.3705 10.79285
867.8884 11.39535
867.4063 14.69661
866.9241 16.2731
866.442 18.34587
865.9599 25.32057
865.4778 36.24956
864.9957 39.18547
864.5135 27.54652
864.0314 12.97303
863.5493 12.79459
863.0672 19.29063
862.5851 21.20361
862.103 21.53724
861.6208 20.68512
861.1387 18.61348
860.6566 17.49968
860.1745 19.96334
859.6924 24.62026
859.2103 27.78678
858.7281 29.68281
858.246 24.8417
857.7639 12.40974
857.2818 3.691238
856.7997 7.252434
856.3176 18.98391
855.8354 29.89184
855.3533 38.02394
854.8712 41.01741
854.3891 36.51892
853.907 26.14621
853.4249 9.574646
852.9427 6.739479
852.4606 9.37532
851.9785 1.192017
851.4964 8.847694
851.0143 3.413284
850.5322 0.492981
850.05 18.72121
849.5679 42.49507
849.0858 47.17932
848.6037 35.13808
848.1216 26.01736
847.6395 32.15535
847.1573 40.35837
846.6752 35.18999
846.1931 24.08384
845.711 12.88651
845.2289 0.340897
844.7468 3.509438
844.2646 7.116829
843.7825 19.93891
843.3004 20.3948
842.8183 15.07243
842.3362 14.28251
841.8541 15.5545
841.3719 12.86372
840.8898 5.323586
840.4077 0.515587
839.9256 5.404083
839.4435 16.55491
838.9614 25.56566
838.4792 31.93128
837.9971 32.32635
837.515 25.39718
837.0329 15.51185
836.5508 5.381088
836.0687 1.427734
835.5865 2.99028
835.1044 19.31516
834.6223 30.62569
834.1402 25.17238
833.6581 17.51311
833.176 19.52824
832.6938 23.86871
832.2117 20.39215
831.7296 8.557388
831.2475 1.435562
830.7654 11.51031
830.2833 25.49713
829.8011 19.02947
829.319 4.827553
828.8369 5.844727
828.3548 20.32286
827.8727 31.035
827.3906 26.36594
826.9084 16.98895
826.4263 14.38867
825.9442 14.1274
825.462 20.15258
824.9799 31.54327
824.4978 34.02258
824.0157 21.28236
823.5336 3.927917
823.0515 3.259323
822.5693 2.608055
822.0872 0.734741
821.6051 1.762924
821.123 4.425201
820.6409 6.086792
820.1588 8.446762
819.6766 13.39368
819.1945 19.16249
818.7124 18.37013
818.2303 7.658188
817.7482 0.712326
817.2661 4.304504
816.7839 13.42108
816.3018 19.36298
815.8197 22.45273
815.3376 24.64293
814.8555 26.18018
814.3734 26.23566
813.8912 23.30222
813.4091 18.52031
812.927 16.19832
812.4449 14.96568
811.9628 14.37733
811.4807 14.33754
810.9985 15.65591
810.5164 19.69247
810.0343 25.20883
809.5522 25.03906
809.0701 21.03796
808.588 15.51388
808.1058 8.720306
807.6237 6.307236
807.1416 14.71158
806.6595 28.80673
806.1774 31.60063
805.6953 21.44424
805.2131 13.62479
804.731 12.52765
804.2489 14.10336
803.7668 17.7662
803.2847 22.41948
802.8026 25.2347
802.3204 24.79555
801.8383 23.46967
801.3562 22.64374
800.8741 22.09006
800.392 23.30542
799.9099 25.16977
799.4277 23.80286
798.9456 17.69994
798.4635 11.54372
797.9814 12.24188
797.4993 16.12563
797.0172 19.97102
796.535 25.06805
796.0529 19.10909
795.5708 0.909576
795.0887 14.0577
794.6066 8.435257
794.1245 8.520309
793.6423 12.4274
793.1602 6.218872
792.6781 2.873016
792.196 4.052597
791.7139 9.648865
791.2318 21.02855
790.7496 33.24524
790.2675 32.40106
789.7854 15.4621
789.3033 6.178055
788.8212 19.76875
788.3391 35.82849
787.8569 36.26297
787.3748 25.55414
786.8927 13.26559
786.4106 3.613861
785.9285 1.8237
785.4464 5.775543
784.9642 20.19981
784.4821 27.21992
784.0 31.87035
783.5179 30.01289
783.0358 20.25433
782.5536 10.19412
782.0715 10.44443
781.5894 15.47606
781.1073 16.82297
780.6252 16.46037
780.1431 17.81578
779.6609 21.32037
779.1788 23.41611
778.6967 20.43843
778.2146 14.19247
777.7325 11.92535
777.2504 14.78653
776.7682 14.95296
776.2861 8.854111
775.804 2.13591
775.3219 0.462936
774.8398 1.174057
774.3577 6.17308
773.8755 13.26791
773.3934 20.24716
772.9113 21.86775
772.4292 21.01598
771.9471 18.81876
771.465 15.42172
770.9828 16.05101
770.5007 24.20297
770.0186 32.52969
769.5365 27.94402
769.0544 16.59879
768.5723 15.81622
768.0901 21.06316
767.608 23.98624
767.1259 22.16438
766.6438 18.74014
766.1617 17.23077
765.6796 17.42674
765.1974 18.33064
764.7153 20.22717
764.2332 22.62126
763.7511 25.0713
763.269 26.4743
762.7869 24.80031
762.3047 20.34969
761.8226 16.93044
761.3405 17.52902
760.8584 18.43236
760.3763 14.7438
759.8942 9.603226
759.412 9.286316
758.9299 13.69141
758.4478 16.70605
757.9657 12.42383
757.4836 6.663284
757.0015 10.66594
756.5193 20.16769
756.0372 28.50525
755.5551 36.41542
755.073 39.23389
754.5909 33.4348
754.1088 22.99379
753.6266 16.31381
753.1445 13.86423
752.6624 14.05467
752.1803 17.01006
751.6982 19.87537
751.2161 19.57918
750.7339 17.81413
750.2518 18.49016
749.7697 22.67166
749.2876 24.82217
748.8055 18.17392
748.3234 8.643677
747.8412 7.851685
747.3591 11.92822
746.877 19.29681
746.3949 29.67455
745.9128 38.15451
745.4307 34.50014
744.9485 24.2144
744.4664 19.87593
743.9843 18.41699
743.5022 18.9937
743.0201 21.62248
742.538 23.6978
742.0558 21.73187
741.5737 16.60776
741.0916 13.03021
740.6095 12.2713
740.1274 14.07816
739.6453 19.40268
739.1631 25.04947
738.681 25.40143
738.1989 20.19675
737.7168 14.73843
737.2347 12.25687
736.7526 11.75317
736.2704 14.46492
735.7883 19.1299
735.3062 18.39328
734.8241 12.50146
734.342 8.403473
733.8599 11.14392
733.3777 16.17345
732.8956 15.12799
732.4135 9.857986
731.9314 9.870941
731.4493 15.54044
730.9672 16.79247
730.485 6.052658
730.0029 9.854294
729.5208 12.68784
729.0387 2.534424
728.5566 16.83723
728.0745 17.22333
727.5923 14.93134
727.1102 17.5441
726.6281 23.19322
726.146 25.4398
725.6639 20.66219
725.1818 14.06049
724.6996 14.22292
724.2175 17.1501
723.7354 18.21585
723.2533 18.80443
722.7712 17.93918
722.2891 15.12393
721.8069 12.88573
721.3248 15.97142
720.8427 22.93802
720.3606 22.18013
719.8785 11.80365
719.3964 4.819519
718.9142 9.547623
718.4321 18.1557
717.95 16.48032
717.4679 1.529663
716.9858 9.873856
716.5037 2.259842
716.0215 11.32675
715.5394 14.05238
715.0573 12.31425
714.5752 10.98125
714.0931 11.61928
713.611 15.76427
713.1288 29.16689
712.6467 47.04382
712.1646 41.47449
711.6825 19.2092
711.2004 6.168961
710.7183 8.672226
710.2361 16.68582
709.754 18.85396
709.2719 15.58968
708.7898 13.13838
708.3077 13.25797
707.8256 16.02431
707.3434 23.55659
706.8613 32.07884
706.3792 33.4863
705.8971 26.47195
705.415 19.68753
704.9329 22.54227
704.4507 28.7103
703.9686 25.17311
703.4865 17.31705
703.0044 10.17548
702.5223 3.930466
702.0402 0.336746
701.558 2.243225
701.0759 8.846161
700.5938 19.90071
700.1117 35.3683
699.6296 41.60941
699.1475 32.49316
698.6653 19.20984
698.1832 13.76534
697.7011 17.36716
697.219 23.72108
696.7369 30.27232
696.2548 35.81708
695.7726 31.68736
695.2905 22.70085
694.8084 16.05334
694.3263 12.19113
693.8442 11.3905
693.3621 15.63797
692.8799 22.48871
692.3978 23.24525
691.9157 19.6366
691.4336 15.34543
690.9515 10.68471
690.4694 7.640121
689.9872 8.638763
689.5051 11.97064
689.023 11.37146
688.5409 4.27269
688.0588 0.394257
687.5767 6.454178
687.0945 17.16095
686.6124 22.78752
686.1303 22.72894
685.6482 19.84984
685.1661 14.90735
684.684 9.342361
684.2018 16.41307
683.7197 30.55627
683.2376 33.77098
682.7555 27.06816
682.2734 19.43283
681.7913 17.35019
681.3091 18.78099
680.827 19.4352
680.3449 18.77306
679.8628 19.29149
679.3807 22.13757
678.8986 26.08098
678.4164 30.27725
677.9343 34.08253
677.4522 35.27075
676.9701 31.26268
676.488 24.93373
676.0059 22.31638
675.5237 20.70142
675.0416 18.99776
674.5595 17.33479
674.0774 18.24973
673.5953 23.78032
673.1132 30.82793
672.631 30.50911
672.1489 22.53709
671.6668 19.95462
671.1847 27.38268
670.7026 35.41385
670.2205 36.78534
669.7383 31.14264
669.2562 21.93555
668.7741 10.56557
668.292 0.391815
667.8099 5.337265
667.3278 17.82506
666.8456 20.54326
666.3635 13.78192
665.8814 6.853775
665.3993 5.019653
664.9172 5.086151
664.4351 3.660248
663.9529 1.212143
663.4708 1.304535
662.9887 3.792068
662.5066 2.889343
662.0245 5.478287
661.5424 19.40854
661.0602 30.13383
660.5781 31.98343
660.096 30.46527
659.6139 28.92361
659.1318 25.43976
658.6497 22.37003
658.1675 19.48346
657.6854 19.86794
657.2033 26.90991
656.7212 35.40067
656.2391 28.18111
655.757 9.563797
655.2748 1.026779
654.7927 5.807526
654.3106 12.32684
653.8285 10.01724
653.3464 0.827942
652.8643 2.43602
652.3821 6.75325
651.9 15.99727
651.4179 9.741226
650.9358 1.077179
650.4537 0.555374
649.9716 17.27505
649.4894 32.99834
649.0073 29.55266
648.5252 18.19847
648.0431 10.68893
647.561 3.946426
647.0789 0.376602
646.5967 1.372955
646.1146 0.059813999
645.6325 3.184036
645.1504 7.879105
644.6683 14.01175
644.1862 21.3781
643.704 27.61946
643.2219 27.91862
642.7398 25.47469
642.2577 25.83273
641.7756 30.58235
641.2935 35.01134
640.8113 32.94463
640.3292 27.92099
639.8471 24.24689
639.365 20.68176
638.8829 14.88385
638.4008 6.310684
637.9186 0.307465
637.4365 4.910843
636.9544 18.52629
636.4723 24.26605
635.9902 11.82301
635.5081 3.296555
635.0259 4.81015
634.5438 1.034698
634.0617 6.368698
633.5796 7.947571
633.0975 9.505005
632.6154 13.70576
632.1332 19.10759
631.6511 18.31404
631.169 13.26884
630.6869 10.61697
630.2048 13.10779
629.7227 17.31932
629.2405 18.04004
628.7584 14.65753
628.2763 11.47441
627.7942 10.87437
627.3121 10.67935
626.83 9.391022
626.3478 7.537704
625.8657 7.095779
625.3836 9.452118
624.9015 13.92114
624.4194 21.03535
623.9373 30.49448
623.4551 28.18452
622.973 16.33394
622.4909 5.282135
622.0088 1.359207
621.5267 4.120438
621.0446 13.14478
620.5624 28.25108
620.0803 38.77902
619.5982 32.4651
619.1161 20.47881
618.634 16.27104
618.1519 19.41751
617.6697 21.69553
617.1876 16.40634
616.7055 9.806824
616.2234 14.19659
615.7413 25.2233
615.2592 24.58128
614.777 11.5575
614.2949 1.014221
613.8128 1.481781
613.3307 8.24263
612.8486 17.32634
612.3665 21.20074
611.8843 21.30959
611.4022 13.27661
610.9201 0.891235
610.438 7.288696
609.9559 9.295807
609.4738 5.904922
608.9916 5.614792
608.5095 22.14458
608.0274 25.39706
607.5453 19.43452
607.0632 12.79977
606.5811 7.999496
606.0989 7.133392
605.6168 14.13904
605.1347 28.37636
604.6526 40.00749
604.1705 39.95558
603.6884 34.82339
603.2062 28.42159
602.7241 19.79198
602.242 12.44925
601.7599 8.488617
601.2778 5.428345
600.7957 1.398743
600.3135 2.815796
599.8314 2.23114
599.3493 2.931808
598.8672 8.945358
598.3851 13.60141
597.903 16.26845
597.4208 15.52036
596.9387 10.51688
596.4566 5.686707
595.9745 8.158463
595.4924 13.52998
595.0103 14.43182
594.5281 11.82523
594.046 8.744827
593.5639 6.679428
593.0818 7.111465
592.5997 18.89406
592.1176 40.83958
591.6354 45.42366
591.1533 24.4088
590.6712 0.118561
590.1891 3.815948
589.707 13.05321
589.2249 29.16862
588.7427 27.68898
588.2606 20.89711
587.7785 20.72209
587.2964 21.91812
586.8143 23.11923
586.3322 24.2115
585.85 23.94115
585.3679 20.29776
584.8858 14.53075
584.4037 11.74638
583.9216 13.02533
583.4395 14.76234
582.9573 14.76733
582.4752 13.63922
581.9931 11.7403
581.511 9.27153
581.0289 7.780838
580.5468 11.87459
580.0646 19.47832
579.5825 21.43959
579.1004 20.54697
578.6183 19.55934
578.1362 19.69995
577.6541 20.18942
577.1719 20.53571
576.6898 21.1521
576.2077 22.77954
575.7256 26.21956
575.2435 28.98532
574.7614 26.13974
574.2792 17.95293
573.7971 8.857681
573.315 3.159576
572.8329 0.441635
572.3508 6.229126
571.8687 20.19846
571.3865 27.78813
570.9044 27.79346
570.4223 26.27263
569.9402 28.68285
569.4581 34.04129
568.976 34.64806
568.4938 25.43221
568.0117 14.50978
567.5296 15.35052
567.0475 21.9554
566.5654 27.97266
566.0833 30.94911
565.6011 32.91783
565.119 33.32353
564.6369 32.48489
564.1548 32.36588
563.6727 32.94618
563.1906 30.63945
562.7084 22.96967
562.2263 13.55563
561.7442 10.96973
561.2621 19.71748
560.78 29.81921
560.2979 25.03224
559.8157 13.5645
559.3336 9.506927
558.8515 10.22505
558.3694 12.16673
557.8873 13.54375
557.4052 15.87785
556.923 22.75066
556.4409 34.30063
555.9588 40.49219
555.4767 34.99297
554.9946 24.19508
554.5125 16.28015
554.0303 13.60411
553.5482 12.88449
553.0661 13.34192
552.584 14.76434
552.1019 10.37782
551.6198 3.154526
551.1376 2.880142
550.6555 7.110458
550.1734 8.06282
549.6913 2.551651
549.2092 9.096481
548.7271 18.16411
548.2449 17.52884
547.7628 13.8602
547.2807 13.65033
546.7986 15.75893
546.3165 16.93242
545.8344 15.00964
545.3522 13.80592
544.8701 22.3662
544.388 38.05067
543.9059 41.78397
543.4238 31.34927
542.9417 18.52852
542.4595 13.83368
541.9774 18.44354
541.4953 26.79681
541.0132 36.15489
540.5311 45.12944
540.049 34.52568
539.5668 12.20622
539.0847 0.68222
538.6026 2.761444
538.1205 9.291656
537.6384 11.90739
537.1563 11.99454
536.6741 13.14029
536.192 16.00168
535.7099 19.82709
535.2278 24.57071
534.7457 29.05286
534.2635 28.73532
533.7814 19.93288
533.2993 8.413895
532.8172 11.08914
532.3351 19.93253
531.853 22.19398
531.3708 18.79251
530.8887 13.7733
530.4066 9.794037
529.9245 7.01004
529.4424 5.338516
528.9603 5.201324
528.4781 5.196548
527.996 2.598145
527.5139 0.716675
527.0318 1.565643
526.5497 11.7211
526.0676 22.37236
525.5854 25.43884
525.1033 24.10068
524.6212 23.25903
524.1391 23.00285
523.657 21.55113
523.1749 18.09357
522.6927 13.40547
522.2106 9.573242
521.7285 8.06636
521.2464 8.038742
520.7643 10.57281
520.2822 15.33255
519.8 19.79755
519.3179 24.3241
518.8358 27.4617
518.3537 27.76472
517.8716 25.82983
517.3895 23.38074
516.9073 20.96553
516.4252 20.57217
515.9431 26.21283
515.461 34.22693
514.9789 34.84586
514.4968 24.03333
514.0146 10.13992
513.5325 3.884476
513.0504 0.768188
512.5683 3.039978
512.0862 10.41458
511.6041 19.36829
511.1219 27.59644
510.6398 33.40352
510.1577 32.70129
509.6756 22.28433
509.1935 8.847351
508.7114 6.65683
508.2292 8.972916
507.7471 13.77235
507.265 21.11115
506.7829 27.88654
506.3008 30.40677
505.8187 30.00705
505.3365 31.99162
504.8544 38.06137
504.3723 41.33591
503.8902 34.61356
503.4081 22.30719
502.926 13.54271
502.4438 13.45721
501.9617 19.50427
501.4796 35.28244
500.9975 58.98495
500.5154 61.84296
500.0333 47.21123
499.5511 27.87509
499.069 11.63885
498.5869 0.015761999
498.1048 5.130692
497.6227 0.140701
497.1406 11.04015
496.6584 18.40446
496.1763 26.02156
495.6942 32.73312
495.2121 38.54379
494.73 41.52995
494.2479 38.62341
493.7657 31.28897
493.2836 26.33719
492.8015 26.1044
492.3194 26.69023
491.8373 25.54245
491.3552 24.27937
490.873 23.30753
490.3909 22.91374
489.9088 22.31291
489.4267 21.13707
488.9446 19.6765
488.4625 23.08258
487.9803 31.5269
487.4982 39.62227
487.0161 41.99515
486.534 38.27119
486.0519 32.14568
485.5698 25.08069
485.0876 17.24248
484.6055 19.22638
484.1234 27.12936
483.6413 33.30145
483.1592 35.88467
482.6771 35.5945
482.1949 30.97835
481.7128 22.48303
481.2307 17.28026
480.7486 19.49666
480.2665 25.10223
479.7844 31.91422
479.3022 39.40639
478.8201 44.79172
478.338 42.68439
477.8559 37.72392
477.3738 38.04324
476.8917 40.37997
476.4095 40.32066
475.9274 36.41757
475.4453 31.0616
474.9632 27.53334
474.4811 26.83321
473.999 26.61031
473.5168 24.70065
473.0347 22.30505
472.5526 28.64301
472.0705 40.81648
471.5884 49.22559
471.1063 48.23242
470.6241 41.42157
470.142 35.40602
469.6599 31.35571
469.1778 30.41011
468.6957 36.02533
468.2136 44.97948
467.7314 51.4735
467.2493 53.49416
466.7672 52.88673
466.2851 49.42824
465.803 43.56989
465.3209 40.56958
464.8387 40.06813
464.3566 37.51341
463.8745 29.89037
463.3924 20.01314
462.9103 16.10939
462.4282 24.79039
461.946 38.43379
461.4639 39.07504
460.9818 34.91849
460.4997 35.04561
460.0176 39.38055
459.5355 43.18446
459.0533 41.70087
458.5712 35.85274
458.0891 32.8307
457.607 37.42229
457.1249 43.81842
456.6428 43.77455
456.1606 39.3631
455.6785 32.65428
455.1964 24.76518
454.7143 17.71794
454.2321 19.51283
453.75 28.85864
453.2679 33.57016
452.7858 28.98502
452.3037 22.45331
451.8216 22.04054
451.3394 29.22255
450.8573 35.20959
450.3752 25.91936
449.8931 8.997345
449.411 1.071823
448.9289 2.863922
448.4467 0.113708
447.9646 11.2588
447.4825 26.78073
447.0004 36.47217
446.5183 34.79358
446.0362 28.1631
445.554 20.89514
445.0719 10.78331
444.5898 7.040619
444.1077 9.2314
443.6256 12.43504
443.1435 12.20067
442.6613 9.683746
442.1792 8.152222
441.6971 8.548111
441.215 7.685196
440.7329 1.265594
440.2508 9.162003
439.7686 16.0126
439.2865 12.58362
438.8044 5.317474
438.3223 0.722366
437.8402 3.125381
437.3581 3.118408
436.8759 1.63237
436.3938 5.820923
435.9117 2.165497
435.4296 10.05391
434.9475 19.49237
434.4654 8.191544
433.9832 14.83696
433.5011 19.46559
433.019 15.97198
432.5369 9.589813
432.0548 2.486893
431.5727 4.983826
431.0905 11.48767
430.6084 15.95044
430.1263 17.50191
429.6442 11.78937
429.1621 1.441879
428.68 3.005188
428.1978 0.060378999
427.7157 3.897507
427.2336 3.085129
426.7515 0.640717
426.2694 0.50386
425.7873 5.388611
425.3051 11.19272
424.823 10.56084
424.3409 4.809479
423.8588 1.495651
423.3767 9.152176
422.8946 20.01506
422.4124 18.59637
421.9303 9.523788
421.4482 1.514206
420.9661 13.17151
420.484 21.28407
420.0019 17.63948
419.5197 0.779602
419.0376 23.06548
418.5555 30.33865
418.0734 31.96835
417.5913 32.89067
417.1092 32.08699
416.627 32.09061
416.1449 35.03433
415.6628 39.84897
415.1807 43.06628
414.6986 42.83748
414.2165 41.40372
413.7343 41.14084
413.2522 41.0352
412.7701 38.19704
412.288 31.96812
411.8059 27.80644
411.3238 36.12302
410.8416 55.30939
410.3595 66.28366
409.8774 59.91217
409.3953 47.80687
408.9132 40.27173
408.4311 38.97188
407.9489 38.12262
407.4668 32.91139
406.9847 26.89542
406.5026 33.00995
406.0205 49.03888
405.5384 64.35471
405.0562 72.99646
404.5741 75.64398
404.092 73.7299
403.6099 67.12152
403.1278 57.46887
402.6457 55.72314
402.1635 56.75781
401.6814 60.38855
401.1993 66.61272
400.7172 75.23369
400.2351 85.98627
399.753 97.78259
399.2708 105.0597
398.7887 100.2835
398.3066 89.3696
397.8245 100.1561
397.3424 86.32753
396.8603 90.41199
396.3781 100.0288
395.896 91.74115
395.4139 91.7244
394.9318 73.64185
394.4497 100.8223
393.9676 82.34995
393.4854 88.65497
393.0033 94.23199
392.5212 82.01468
392.0391 114.1795
391.557 111.725
391.0749 100.4374
390.5927 80.22244
390.1106 94.80597
389.6285 92.79129
389.1464 95.61563
388.6643 103.3435
388.1822 109.3706
387.7 102.6367
387.2179 89.41632
386.7358 82.8988
386.2537 79.26892
385.7716 80.62723
385.2895 88.59958
384.8073 99.06439
384.3252 102.053
383.8431 90.30539
383.361 73.03748
382.8789 68.72751
382.3968 68.54675
381.9146 70.65247
381.4325 75.62918
380.9504 79.47385
380.4683 75.5889
379.9862 64.00526
379.5041 52.84866
379.0219 49.20569
378.5398 48.83397
378.0577 54.27583
377.5756 66.0244
377.0935 73.83759
376.6114 69.67599
376.1292 58.19559
375.6471 54.0732
375.165 60.19234
374.6829 68.41544
374.2008 72.63168
373.7187 74.15085
373.2365 72.65923
372.7544 66.91061
372.2723 59.10785
371.7902 54.0495
371.3081 50.33389
370.826 51.35574
370.3438 58.74255
369.8617 68.1268
369.3796 72.92188
368.8975 70.38446
368.4154 64.45349
367.9333 57.75684
367.4511 48.92255
366.969 49.15656
366.4869 56.2182
366.0048 62.1438
365.5227 61.07971
365.0406 54.01144
364.5584 47.65747
364.0763 47.52087
363.5942 49.87064
363.1121 53.83157
362.63 59.66061
362.1479 59.37738
361.6657 51.01608
361.1836 39.10785
360.7015 33.65707
360.2194 37.88251
359.7373 44.05508
359.2552 43.97809
358.773 42.1517
358.2909 47.46069
357.8088 60.35303
357.3267 73.33746
356.8446 77.80765
356.3625 75.75659
355.8803 77.38379
355.3982 87.55902
354.9161 99.59705
354.434 105.5738
353.9519 105.4833
353.4698 106.9575
352.9876 116.9069
352.5055 130.6519
352.0234 140.0907
351.5413 145.3674
351.0592 147.106
350.5771 144.3098
350.0949 138.4862
349.6128 134.7768
349.1307 138.5021
348.6486 144.598
348.1665 143.2072
347.6844 137.5428
347.2022 134.3458
346.7201 135.176
346.238 136.9718
345.7559 135.4856
345.2738 129.1122
344.7917 121.9531
344.3095 122.253
343.8274 125.7959
343.3453 130.4328
342.8632 136.5219
342.3811 144.647
341.899 155.1467
341.4168 166.9504
340.9347 175.7109
340.4526 175.4726
339.9705 170.0695
339.4884 164.035
339.0063 155.8907
338.5241 150.5967
338.042 150.6802
337.5599 153.9848
337.0778 155.9051
336.5957 154.5252
336.1136 151.0587
335.6314 143.4434
335.1493 132.5198
334.6672 119.0341
334.1851 103.5307
333.703 89.48874
333.2209 84.77936
332.7387 89.40253
332.2566 97.05014
331.7745 103.8851
331.2924 111.3694
330.8103 114.6452
330.3282 112.0112
329.846 108.9221
329.3639 111.2377
328.8818 117.013
328.3997 126.8035
327.9176 140.8495
327.4355 153.3065
326.9533 154.7632
326.4712 144.8084
325.9891 130.3807
325.507 119.1611
325.0249 107.4208
324.5428 99.25806
324.0606 94.00122
323.5785 91.07281
323.0964 90.47925
322.6143 92.14334
322.1322 95.94382
321.6501 101.7392
321.1679 109.483
320.6858 115.7881
320.2037 121.8658
319.7216 125.874
319.2395 127.311
318.7574 128.0119
318.2752 131.0623
317.7931 138.1958
317.311 147.0141
316.8289 154.2577
316.3468 161.5174
315.8647 156.9271
315.3825 141.0346
314.9004 122.6803
314.4183 111.6193
313.9362 109.5727
313.4541 109.8466
312.972 107.4705
312.4898 105.3007
312.0077 104.6893
311.5256 105.2458
311.0435 103.9749
310.5614 98.45187
310.0793 90.15427
309.5971 84.88541
309.115 86.72559
308.6329 91.9509
308.1508 97.19513
307.6687 103.6156
307.1866 106.425
306.7044 102.998
306.2223 95.5069
305.7402 87.34958
305.2581 79.31165
304.776 72.76639
304.2939 72.30154
303.8117 75.71155
303.3296 75.80069
302.8475 69.07245
302.3654 58.92798
301.8833 47.1799
301.4012 33.72223
300.919 27.13806
300.4369 34.57095
299.9548 47.66718
299.4727 49.63528
298.9906 31.53897
298.5085 10.96118
298.0263 10.06058
297.5442 21.44257
297.0621 28.3418
296.58 27.19308
296.0979 23.87134
295.6158 21.23767
295.1336 20.12405
294.6515 19.24857
294.1694 18.29941
293.6873 17.36731
293.2052 14.96033
292.7231 11.19467
292.2409 5.874756
291.7588 1.521393
291.2767 10.29739
290.7946 17.18332
290.3125 15.68456
289.8304 9.376801
289.3482 0.054779001
288.8661 12.81567
288.384 20.03156
287.9019 15.63995
287.4198 3.295288
286.9377 5.344452
286.4555 1.383972
285.9734 14.88226
285.4913 14.21735
285.0092 8.340729
284.5271 6.81311
284.045 12.5719
283.5628 22.30118
283.0807 29.99094
282.5986 31.92151
282.1165 29.96634
281.6344 19.9624
281.1523 4.16153
280.6701 0.324188
280.188 8.078735
279.7059 21.06894
279.2238 27.38696
278.7417 23.61893
278.2596 18.19196
277.7774 21.31323
277.2953 27.65695
276.8132 35.44824
276.3311 44.69031
275.849 54.62793
275.3669 63.93939
274.8847 72.23795
274.4026 78.6861
273.9205 81.24951
273.4384 81.07684
272.9563 76.94562
272.4742 69.23877
271.992 60.41983
271.5099 52.78375
271.0278 46.72171
270.5457 45.18494
270.0636 51.22839
269.5815 62.00827
269.0993 71.73801
268.6172 81.11734
268.1351 87.94626
267.653 89.72366
267.1709 87.15994
266.6888 79.79971
266.2066 67.18488
265.7245 53.57248
265.2424 49.45459
264.7603 52.85443
264.2782 55.9993
263.7961 54.08301
263.3139 51.67154
262.8318 57.94809
262.3497 74.08087
261.8676 87.65939
261.3855 83.16574
260.9034 66.37109
260.4212 52.28641
259.9391 51.66171
259.457 56.1546
258.9749 61.50922
258.4928 68.0571
258.0107 70.67999
257.5285 63.66772
257.0464 51.22491
256.5643 43.71194
256.0822 50.01785
255.6001 60.86475
255.1179 68.08557
254.6358 73.58157
254.1537 77.66519
253.6716 79.8306
253.1895 79.80569
252.7074 76.00107
252.2252 67.19586
251.7431 58.11136
251.261 61.095
250.7789 71.83203
250.2968 75.7677
249.8147 68.97287
249.3325 58.69122
248.8504 53.61124
248.3683 57.8288
247.8862 63.35507
247.4041 56.57928
246.922 43.62131
246.4398 40.34317
245.9577 48.02457
245.4756 58.33224
244.9935 62.43692
244.5114 57.20667
244.0293 48.15594
243.5471 40.56561
243.065 31.81406
242.5829 30.42209
242.1008 35.70389
241.6187 41.34476
241.1366 41.242
240.6544 34.51532
240.1723 27.73773
239.6902 32.64795
239.2081 42.95551
238.726 44.00308
238.2439 38.64999
237.7617 32.95325
237.2796 31.25949
236.7975 33.91632
236.3154 37.43832
235.8333 38.2135
235.3512 38.29541
234.869 36.91653
234.3869 34.36584
233.9048 33.82779
233.4227 37.5946
232.9406 44.03275
232.4585 46.72318
231.9763 36.28479
231.4942 17.83505
231.0121 13.61588
230.53 15.84293
230.0479 18.29074
229.5658 17.73969
229.0836 14.17932
228.6015 9.336975
228.1194 3.440918
227.6373 3.818512
227.1552 12.4502
226.673 22.59396
226.1909 27.71249
225.7088 24.5231
225.2267 15.509
224.7446 2.548889
224.2625 3.442108
223.7803 6.845154
223.2982 8.090149
222.8161 7.064514
222.334 4.499573
221.8519 0.771606
221.3698 3.148315
220.8876 5.079071
220.4055 2.904938
219.9234 1.366089
219.4413 2.096619
218.9592 1.86377
218.4771 1.367798
217.9949 0.851135
217.5128 0.40979
217.0307 0.245361
216.5486 0.585083
216.0665 1.721375
215.5844 8.65625
215.1022 19.17688
214.6201 25.82709
214.138 26.49548
213.6559 22.40216
213.1738 15.84937
212.6917 7.817261
212.2095 0.594238
211.7274 5.187744
211.2453 19.05127
210.7632 29.39935
210.2811 34.03345
209.799 35.81866
209.3168 38.95105
208.8347 45.4231
208.3526 52.01733
207.8705 51.87195
207.3884 48.09375
206.9063 49.96136
206.4241 59.12054
205.942 72.40271
205.4599 85.04675
204.9778 94.89764
204.4957 101.431
204.0136 91.90631
203.5314 71.03967
203.0493 65.03534
202.5672 76.43768
202.0851 94.88715
201.603 105.7086
201.1209 103.1027
200.6387 96.2926
200.1566 96.38422
199.6745 98.05536
199.1924 96.17761
198.7103 91.13007
198.2282 85.07361
197.746 80.75946
197.2639 77.1684
196.7818 72.05597
196.2997 73.43018
195.8176 84.32312
195.3355 93.0705
194.8533 97.84625
194.3712 95.61682
193.8891 82.89886
193.407 60.60156
192.9249 34.87518
192.4428 24.75146
191.9606 21.58588
191.4785 26.94476
190.9964 41.77399
190.5143 59.85944
190.0322 72.66107
189.5501 76.21588
189.0679 78.72729
188.5858 76.61224
188.1037 69.52716
187.6216 60.93079
187.1395 50.4115
186.6574 41.4906
186.1752 39.16736
185.6931 45.19922
185.211 56.02179
184.7289 72.48932
184.2468 95.88818
183.7647 110.7937
183.2825 116.384
182.8004 113.5979
182.3183 102.3691
181.8362 83.31042
181.3541 60.79388
180.872 48.76611
180.3898 39.60693
179.9077 32.96228
179.4256 31.01465
178.9435 33.37671
178.4614 35.11707
177.9793 33.28638
177.4971 28.80615
177.015 19.74158
176.5329 6.97876
176.0508 0.540405
175.5687 1.016235
175.0866 2.709106
174.6044 8.023682
174.1223 12.76355
173.6402 18.5155
173.1581 28.28137
172.676 41.65881
172.1939 57.88965
171.7117 71.05432
171.2296 77.06323
170.7475 69.26111
170.2654 38.5542
169.7833 0.027222
169.3012 4.297241
168.819 26.40906
168.3369 16.59412
167.8548 0.0
